# Equilibrium shape and gravity solved with 4th-order Theory of Figures
#
# Model name: uranus
#
# Scalar quantities:
# N levels = 4096
# xlevels = 256
# Mass M = 8.681198782268711e+25 kg
# Mean radius       s0 = 2.538871e+07 m
# Equatorial radius a0 = 2.555900e+07 m
# Rotation period P = 62063.7 s
# Rotation parameter m = 0.028857
# Rotation parameter q = 0.029534
# Normalized MOI = 0.226663
#
# Calculated gravity zonal harmonics (x 10^6):
# J0  = -1000510.937028
# J2  =  3511.648568
# J4  =   -30.889968
# J6  =     0.446919
# J8  =    -0.010010
#
# Column data description (MKS):
# i     - level surface index (increasing with depth)
# s_i   - mean radius of level surface i
# rho_i - density on level surfaces i
# P_i   - pressure on level surface i
#
# Column data:
#    i     s_i         rho_i       P_i
     0  2.5389e+07  3.6700e-01  1.0000e+05  
     1  2.5383e+07  1.4206e+01  4.9842e+05  
     2  2.5376e+07  2.6821e+01  1.6204e+06  
     3  2.5370e+07  3.8211e+01  3.3997e+06  
     4  2.5364e+07  4.8378e+01  5.7700e+06  
     5  2.5358e+07  5.7324e+01  8.6648e+06  
     6  2.5352e+07  6.5048e+01  1.2018e+07  
     7  2.5345e+07  7.1553e+01  1.5762e+07  
     8  2.5339e+07  7.6838e+01  1.9832e+07  
     9  2.5333e+07  8.0905e+01  2.4160e+07  
    10  2.5327e+07  8.3755e+01  2.8679e+07  
    11  2.5321e+07  8.5389e+01  3.3324e+07  
    12  2.5314e+07  8.5807e+01  3.8028e+07  
    13  2.5308e+07  8.5815e+01  4.2745e+07  
    14  2.5302e+07  8.5823e+01  4.7465e+07  
    15  2.5296e+07  8.5831e+01  5.2188e+07  
    16  2.5290e+07  8.5839e+01  5.6913e+07  
    17  2.5283e+07  8.5847e+01  6.1640e+07  
    18  2.5277e+07  8.5855e+01  6.6371e+07  
    19  2.5271e+07  8.5862e+01  7.1103e+07  
    20  2.5265e+07  8.5870e+01  7.5839e+07  
    21  2.5259e+07  8.5878e+01  8.0577e+07  
    22  2.5252e+07  8.5886e+01  8.5317e+07  
    23  2.5246e+07  8.5894e+01  9.0061e+07  
    24  2.5240e+07  8.5902e+01  9.4806e+07  
    25  2.5234e+07  8.5910e+01  9.9555e+07  
    26  2.5228e+07  8.5918e+01  1.0431e+08  
    27  2.5221e+07  8.5926e+01  1.0906e+08  
    28  2.5215e+07  8.5934e+01  1.1382e+08  
    29  2.5209e+07  8.5942e+01  1.1857e+08  
    30  2.5203e+07  8.5951e+01  1.2334e+08  
    31  2.5197e+07  8.5959e+01  1.2810e+08  
    32  2.5190e+07  8.5967e+01  1.3287e+08  
    33  2.5184e+07  8.5975e+01  1.3764e+08  
    34  2.5178e+07  8.5983e+01  1.4241e+08  
    35  2.5172e+07  8.5991e+01  1.4718e+08  
    36  2.5166e+07  8.5999e+01  1.5196e+08  
    37  2.5159e+07  8.6008e+01  1.5674e+08  
    38  2.5153e+07  8.6016e+01  1.6152e+08  
    39  2.5147e+07  8.6024e+01  1.6631e+08  
    40  2.5141e+07  8.6032e+01  1.7110e+08  
    41  2.5135e+07  8.6040e+01  1.7589e+08  
    42  2.5128e+07  8.6049e+01  1.8068e+08  
    43  2.5122e+07  8.6057e+01  1.8548e+08  
    44  2.5116e+07  8.6065e+01  1.9027e+08  
    45  2.5110e+07  8.6073e+01  1.9507e+08  
    46  2.5104e+07  8.6082e+01  1.9988e+08  
    47  2.5097e+07  8.6090e+01  2.0469e+08  
    48  2.5091e+07  8.6098e+01  2.0949e+08  
    49  2.5085e+07  8.6107e+01  2.1431e+08  
    50  2.5079e+07  8.6115e+01  2.1912e+08  
    51  2.5073e+07  8.6124e+01  2.2394e+08  
    52  2.5066e+07  8.6132e+01  2.2876e+08  
    53  2.5060e+07  8.6140e+01  2.3358e+08  
    54  2.5054e+07  8.6149e+01  2.3841e+08  
    55  2.5048e+07  8.6157e+01  2.4323e+08  
    56  2.5042e+07  8.6166e+01  2.4806e+08  
    57  2.5035e+07  8.6174e+01  2.5290e+08  
    58  2.5029e+07  8.6183e+01  2.5773e+08  
    59  2.5023e+07  8.6191e+01  2.6257e+08  
    60  2.5017e+07  8.6200e+01  2.6741e+08  
    61  2.5011e+07  8.6208e+01  2.7226e+08  
    62  2.5004e+07  8.6217e+01  2.7710e+08  
    63  2.4998e+07  8.6225e+01  2.8195e+08  
    64  2.4992e+07  8.6234e+01  2.8681e+08  
    65  2.4986e+07  8.6242e+01  2.9166e+08  
    66  2.4980e+07  8.6251e+01  2.9652e+08  
    67  2.4973e+07  8.6260e+01  3.0138e+08  
    68  2.4967e+07  8.6268e+01  3.0624e+08  
    69  2.4961e+07  8.6277e+01  3.1111e+08  
    70  2.4955e+07  8.6286e+01  3.1598e+08  
    71  2.4949e+07  8.6294e+01  3.2085e+08  
    72  2.4942e+07  8.6303e+01  3.2572e+08  
    73  2.4936e+07  8.6312e+01  3.3060e+08  
    74  2.4930e+07  8.6321e+01  3.3548e+08  
    75  2.4924e+07  8.6329e+01  3.4036e+08  
    76  2.4918e+07  8.6338e+01  3.4525e+08  
    77  2.4911e+07  8.6347e+01  3.5013e+08  
    78  2.4905e+07  8.6356e+01  3.5502e+08  
    79  2.4899e+07  8.6364e+01  3.5992e+08  
    80  2.4893e+07  8.6373e+01  3.6481e+08  
    81  2.4887e+07  8.6382e+01  3.6971e+08  
    82  2.4880e+07  8.6391e+01  3.7461e+08  
    83  2.4874e+07  8.6400e+01  3.7952e+08  
    84  2.4868e+07  8.6409e+01  3.8443e+08  
    85  2.4862e+07  8.6418e+01  3.8934e+08  
    86  2.4856e+07  8.6427e+01  3.9425e+08  
    87  2.4849e+07  8.6436e+01  3.9917e+08  
    88  2.4843e+07  8.6445e+01  4.0408e+08  
    89  2.4837e+07  8.6453e+01  4.0900e+08  
    90  2.4831e+07  8.6462e+01  4.1393e+08  
    91  2.4825e+07  8.6472e+01  4.1886e+08  
    92  2.4818e+07  8.6481e+01  4.2379e+08  
    93  2.4812e+07  8.6490e+01  4.2872e+08  
    94  2.4806e+07  8.6499e+01  4.3365e+08  
    95  2.4800e+07  8.6508e+01  4.3859e+08  
    96  2.4794e+07  8.6517e+01  4.4353e+08  
    97  2.4787e+07  8.6526e+01  4.4848e+08  
    98  2.4781e+07  8.6535e+01  4.5342e+08  
    99  2.4775e+07  8.6544e+01  4.5837e+08  
   100  2.4769e+07  8.6553e+01  4.6332e+08  
   101  2.4763e+07  8.6563e+01  4.6828e+08  
   102  2.4756e+07  8.6572e+01  4.7324e+08  
   103  2.4750e+07  8.6581e+01  4.7820e+08  
   104  2.4744e+07  8.6590e+01  4.8316e+08  
   105  2.4738e+07  8.6599e+01  4.8813e+08  
   106  2.4732e+07  8.6609e+01  4.9310e+08  
   107  2.4725e+07  8.6618e+01  4.9807e+08  
   108  2.4719e+07  8.6627e+01  5.0304e+08  
   109  2.4713e+07  8.6637e+01  5.0802e+08  
   110  2.4707e+07  8.6646e+01  5.1300e+08  
   111  2.4701e+07  8.6655e+01  5.1798e+08  
   112  2.4694e+07  8.6665e+01  5.2297e+08  
   113  2.4688e+07  8.6674e+01  5.2796e+08  
   114  2.4682e+07  8.6683e+01  5.3295e+08  
   115  2.4676e+07  8.6693e+01  5.3795e+08  
   116  2.4670e+07  8.6702e+01  5.4295e+08  
   117  2.4664e+07  8.6712e+01  5.4795e+08  
   118  2.4657e+07  8.6721e+01  5.5295e+08  
   119  2.4651e+07  8.6731e+01  5.5796e+08  
   120  2.4645e+07  8.6740e+01  5.6297e+08  
   121  2.4639e+07  8.6750e+01  5.6798e+08  
   122  2.4633e+07  8.6759e+01  5.7299e+08  
   123  2.4626e+07  8.6769e+01  5.7801e+08  
   124  2.4620e+07  8.6779e+01  5.8303e+08  
   125  2.4614e+07  8.6788e+01  5.8806e+08  
   126  2.4608e+07  8.6798e+01  5.9308e+08  
   127  2.4602e+07  8.6807e+01  5.9811e+08  
   128  2.4595e+07  8.6817e+01  6.0315e+08  
   129  2.4589e+07  8.6827e+01  6.0818e+08  
   130  2.4583e+07  8.6836e+01  6.1322e+08  
   131  2.4577e+07  8.6846e+01  6.1826e+08  
   132  2.4571e+07  8.6856e+01  6.2331e+08  
   133  2.4564e+07  8.6866e+01  6.2835e+08  
   134  2.4558e+07  8.6875e+01  6.3340e+08  
   135  2.4552e+07  8.6885e+01  6.3846e+08  
   136  2.4546e+07  8.6895e+01  6.4351e+08  
   137  2.4540e+07  8.6905e+01  6.4857e+08  
   138  2.4533e+07  8.6915e+01  6.5363e+08  
   139  2.4527e+07  8.6925e+01  6.5870e+08  
   140  2.4521e+07  8.6934e+01  6.6377e+08  
   141  2.4515e+07  8.6944e+01  6.6884e+08  
   142  2.4509e+07  8.6954e+01  6.7391e+08  
   143  2.4502e+07  8.6964e+01  6.7899e+08  
   144  2.4496e+07  8.6974e+01  6.8407e+08  
   145  2.4490e+07  8.6984e+01  6.8915e+08  
   146  2.4484e+07  8.6994e+01  6.9424e+08  
   147  2.4478e+07  8.7004e+01  6.9933e+08  
   148  2.4471e+07  8.7014e+01  7.0442e+08  
   149  2.4465e+07  8.7024e+01  7.0951e+08  
   150  2.4459e+07  8.7034e+01  7.1461e+08  
   151  2.4453e+07  8.7045e+01  7.1971e+08  
   152  2.4447e+07  8.7055e+01  7.2482e+08  
   153  2.4440e+07  8.7065e+01  7.2992e+08  
   154  2.4434e+07  8.7075e+01  7.3503e+08  
   155  2.4428e+07  8.7085e+01  7.4015e+08  
   156  2.4422e+07  8.7095e+01  7.4526e+08  
   157  2.4416e+07  8.7106e+01  7.5038e+08  
   158  2.4409e+07  8.7116e+01  7.5550e+08  
   159  2.4403e+07  8.7126e+01  7.6063e+08  
   160  2.4397e+07  8.7136e+01  7.6576e+08  
   161  2.4391e+07  8.7147e+01  7.7089e+08  
   162  2.4385e+07  8.7157e+01  7.7602e+08  
   163  2.4378e+07  8.7167e+01  7.8116e+08  
   164  2.4372e+07  8.7178e+01  7.8630e+08  
   165  2.4366e+07  8.7188e+01  7.9144e+08  
   166  2.4360e+07  8.7199e+01  7.9659e+08  
   167  2.4354e+07  8.7209e+01  8.0174e+08  
   168  2.4347e+07  8.7219e+01  8.0689e+08  
   169  2.4341e+07  8.7230e+01  8.1205e+08  
   170  2.4335e+07  8.7240e+01  8.1721e+08  
   171  2.4329e+07  8.7251e+01  8.2237e+08  
   172  2.4323e+07  8.7261e+01  8.2753e+08  
   173  2.4316e+07  8.7272e+01  8.3270e+08  
   174  2.4310e+07  8.7283e+01  8.3787e+08  
   175  2.4304e+07  8.7293e+01  8.4304e+08  
   176  2.4298e+07  8.7304e+01  8.4822e+08  
   177  2.4292e+07  8.7314e+01  8.5340e+08  
   178  2.4285e+07  8.7325e+01  8.5859e+08  
   179  2.4279e+07  8.7336e+01  8.6377e+08  
   180  2.4273e+07  8.7346e+01  8.6896e+08  
   181  2.4267e+07  8.7357e+01  8.7415e+08  
   182  2.4261e+07  8.7368e+01  8.7935e+08  
   183  2.4254e+07  8.7379e+01  8.8455e+08  
   184  2.4248e+07  8.7390e+01  8.8975e+08  
   185  2.4242e+07  8.7400e+01  8.9496e+08  
   186  2.4236e+07  8.7411e+01  9.0016e+08  
   187  2.4230e+07  8.7422e+01  9.0538e+08  
   188  2.4223e+07  8.7433e+01  9.1059e+08  
   189  2.4217e+07  8.7444e+01  9.1581e+08  
   190  2.4211e+07  8.7455e+01  9.2103e+08  
   191  2.4205e+07  8.7466e+01  9.2625e+08  
   192  2.4199e+07  8.7477e+01  9.3148e+08  
   193  2.4192e+07  8.7488e+01  9.3671e+08  
   194  2.4186e+07  8.7499e+01  9.4194e+08  
   195  2.4180e+07  8.7510e+01  9.4718e+08  
   196  2.4174e+07  8.7521e+01  9.5242e+08  
   197  2.4168e+07  8.7532e+01  9.5766e+08  
   198  2.4161e+07  8.7543e+01  9.6291e+08  
   199  2.4155e+07  8.7554e+01  9.6816e+08  
   200  2.4149e+07  8.7565e+01  9.7341e+08  
   201  2.4143e+07  8.7577e+01  9.7867e+08  
   202  2.4137e+07  8.7588e+01  9.8393e+08  
   203  2.4130e+07  8.7599e+01  9.8919e+08  
   204  2.4124e+07  8.7610e+01  9.9445e+08  
   205  2.4118e+07  8.7622e+01  9.9972e+08  
   206  2.4112e+07  8.7633e+01  1.0050e+09  
   207  2.4106e+07  8.7644e+01  1.0103e+09  
   208  2.4099e+07  8.7656e+01  1.0155e+09  
   209  2.4093e+07  8.7667e+01  1.0208e+09  
   210  2.4087e+07  8.7678e+01  1.0261e+09  
   211  2.4081e+07  8.7690e+01  1.0314e+09  
   212  2.4075e+07  8.7701e+01  1.0367e+09  
   213  2.4068e+07  8.7713e+01  1.0420e+09  
   214  2.4062e+07  8.7724e+01  1.0473e+09  
   215  2.4056e+07  8.7736e+01  1.0526e+09  
   216  2.4050e+07  8.7747e+01  1.0579e+09  
   217  2.4044e+07  8.7759e+01  1.0632e+09  
   218  2.4037e+07  8.7770e+01  1.0685e+09  
   219  2.4031e+07  8.7782e+01  1.0738e+09  
   220  2.4025e+07  8.7794e+01  1.0791e+09  
   221  2.4019e+07  8.7805e+01  1.0845e+09  
   222  2.4013e+07  8.7817e+01  1.0898e+09  
   223  2.4006e+07  8.7829e+01  1.0951e+09  
   224  2.4000e+07  8.7841e+01  1.1004e+09  
   225  2.3994e+07  8.7852e+01  1.1058e+09  
   226  2.3988e+07  8.7864e+01  1.1111e+09  
   227  2.3982e+07  8.7876e+01  1.1164e+09  
   228  2.3975e+07  8.7888e+01  1.1218e+09  
   229  2.3969e+07  8.7900e+01  1.1271e+09  
   230  2.3963e+07  8.7912e+01  1.1325e+09  
   231  2.3957e+07  8.7923e+01  1.1378e+09  
   232  2.3951e+07  8.7935e+01  1.1432e+09  
   233  2.3944e+07  8.7947e+01  1.1486e+09  
   234  2.3938e+07  8.7959e+01  1.1539e+09  
   235  2.3932e+07  8.7971e+01  1.1593e+09  
   236  2.3926e+07  8.7984e+01  1.1647e+09  
   237  2.3920e+07  8.7996e+01  1.1700e+09  
   238  2.3913e+07  8.8008e+01  1.1754e+09  
   239  2.3907e+07  8.8020e+01  1.1808e+09  
   240  2.3901e+07  8.8032e+01  1.1862e+09  
   241  2.3895e+07  8.8044e+01  1.1916e+09  
   242  2.3889e+07  8.8056e+01  1.1970e+09  
   243  2.3882e+07  8.8069e+01  1.2023e+09  
   244  2.3876e+07  8.8081e+01  1.2077e+09  
   245  2.3870e+07  8.8093e+01  1.2131e+09  
   246  2.3864e+07  8.8106e+01  1.2185e+09  
   247  2.3858e+07  8.8118e+01  1.2240e+09  
   248  2.3852e+07  8.8130e+01  1.2294e+09  
   249  2.3845e+07  8.8143e+01  1.2348e+09  
   250  2.3839e+07  8.8155e+01  1.2402e+09  
   251  2.3833e+07  8.8168e+01  1.2456e+09  
   252  2.3827e+07  8.8180e+01  1.2510e+09  
   253  2.3821e+07  8.8193e+01  1.2565e+09  
   254  2.3814e+07  8.8205e+01  1.2619e+09  
   255  2.3808e+07  8.8218e+01  1.2673e+09  
   256  2.3802e+07  8.8230e+01  1.2728e+09  
   257  2.3796e+07  8.8243e+01  1.2782e+09  
   258  2.3790e+07  8.8256e+01  1.2837e+09  
   259  2.3783e+07  8.8268e+01  1.2891e+09  
   260  2.3777e+07  8.8281e+01  1.2946e+09  
   261  2.3771e+07  8.8294e+01  1.3000e+09  
   262  2.3765e+07  8.8307e+01  1.3055e+09  
   263  2.3759e+07  8.8319e+01  1.3109e+09  
   264  2.3752e+07  8.8332e+01  1.3164e+09  
   265  2.3746e+07  8.8345e+01  1.3219e+09  
   266  2.3740e+07  8.8358e+01  1.3273e+09  
   267  2.3734e+07  8.8371e+01  1.3328e+09  
   268  2.3728e+07  8.8384e+01  1.3383e+09  
   269  2.3721e+07  8.8397e+01  1.3438e+09  
   270  2.3715e+07  8.8410e+01  1.3493e+09  
   271  2.3709e+07  8.8423e+01  1.3547e+09  
   272  2.3703e+07  8.8436e+01  1.3602e+09  
   273  2.3697e+07  8.8449e+01  1.3657e+09  
   274  2.3690e+07  8.8462e+01  1.3712e+09  
   275  2.3684e+07  8.8475e+01  1.3767e+09  
   276  2.3678e+07  8.8489e+01  1.3822e+09  
   277  2.3672e+07  8.8502e+01  1.3878e+09  
   278  2.3666e+07  8.8515e+01  1.3933e+09  
   279  2.3659e+07  8.8528e+01  1.3988e+09  
   280  2.3653e+07  8.8542e+01  1.4043e+09  
   281  2.3647e+07  8.8555e+01  1.4098e+09  
   282  2.3641e+07  8.8568e+01  1.4154e+09  
   283  2.3635e+07  8.8582e+01  1.4209e+09  
   284  2.3628e+07  8.8595e+01  1.4264e+09  
   285  2.3622e+07  8.8609e+01  1.4320e+09  
   286  2.3616e+07  8.8622e+01  1.4375e+09  
   287  2.3610e+07  8.8636e+01  1.4431e+09  
   288  2.3604e+07  8.8649e+01  1.4486e+09  
   289  2.3597e+07  8.8663e+01  1.4542e+09  
   290  2.3591e+07  8.8677e+01  1.4597e+09  
   291  2.3585e+07  8.8690e+01  1.4653e+09  
   292  2.3579e+07  8.8704e+01  1.4708e+09  
   293  2.3573e+07  8.8718e+01  1.4764e+09  
   294  2.3566e+07  8.8731e+01  1.4820e+09  
   295  2.3560e+07  8.8745e+01  1.4876e+09  
   296  2.3554e+07  8.8759e+01  1.4931e+09  
   297  2.3548e+07  8.8773e+01  1.4987e+09  
   298  2.3542e+07  8.8787e+01  1.5043e+09  
   299  2.3535e+07  8.8801e+01  1.5099e+09  
   300  2.3529e+07  8.8815e+01  1.5155e+09  
   301  2.3523e+07  8.8829e+01  1.5211e+09  
   302  2.3517e+07  8.8843e+01  1.5267e+09  
   303  2.3511e+07  8.8857e+01  1.5323e+09  
   304  2.3504e+07  8.8871e+01  1.5379e+09  
   305  2.3498e+07  8.8885e+01  1.5435e+09  
   306  2.3492e+07  8.8899e+01  1.5491e+09  
   307  2.3486e+07  8.8913e+01  1.5547e+09  
   308  2.3480e+07  8.8928e+01  1.5604e+09  
   309  2.3473e+07  8.8942e+01  1.5660e+09  
   310  2.3467e+07  8.8956e+01  1.5716e+09  
   311  2.3461e+07  8.8970e+01  1.5773e+09  
   312  2.3455e+07  8.8985e+01  1.5829e+09  
   313  2.3449e+07  8.8999e+01  1.5885e+09  
   314  2.3442e+07  8.9014e+01  1.5942e+09  
   315  2.3436e+07  8.9028e+01  1.5998e+09  
   316  2.3430e+07  8.9043e+01  1.6055e+09  
   317  2.3424e+07  8.9057e+01  1.6111e+09  
   318  2.3418e+07  8.9072e+01  1.6168e+09  
   319  2.3411e+07  8.9086e+01  1.6225e+09  
   320  2.3405e+07  8.9101e+01  1.6281e+09  
   321  2.3399e+07  8.9116e+01  1.6338e+09  
   322  2.3393e+07  8.9130e+01  1.6395e+09  
   323  2.3387e+07  8.9145e+01  1.6452e+09  
   324  2.3380e+07  8.9160e+01  1.6508e+09  
   325  2.3374e+07  8.9175e+01  1.6565e+09  
   326  2.3368e+07  8.9190e+01  1.6622e+09  
   327  2.3362e+07  8.9205e+01  1.6679e+09  
   328  2.3356e+07  8.9220e+01  1.6736e+09  
   329  2.3349e+07  8.9235e+01  1.6793e+09  
   330  2.3343e+07  8.9250e+01  1.6850e+09  
   331  2.3337e+07  8.9265e+01  1.6907e+09  
   332  2.3331e+07  8.9280e+01  1.6964e+09  
   333  2.3325e+07  8.9295e+01  1.7021e+09  
   334  2.3318e+07  8.9310e+01  1.7079e+09  
   335  2.3312e+07  8.9325e+01  1.7136e+09  
   336  2.3306e+07  8.9340e+01  1.7193e+09  
   337  2.3300e+07  8.9356e+01  1.7250e+09  
   338  2.3294e+07  8.9371e+01  1.7308e+09  
   339  2.3287e+07  8.9386e+01  1.7365e+09  
   340  2.3281e+07  8.9402e+01  1.7423e+09  
   341  2.3275e+07  8.9417e+01  1.7480e+09  
   342  2.3269e+07  8.9433e+01  1.7538e+09  
   343  2.3263e+07  8.9448e+01  1.7595e+09  
   344  2.3256e+07  8.9464e+01  1.7653e+09  
   345  2.3250e+07  8.9479e+01  1.7710e+09  
   346  2.3244e+07  8.9495e+01  1.7768e+09  
   347  2.3238e+07  8.9511e+01  1.7826e+09  
   348  2.3232e+07  8.9526e+01  1.7884e+09  
   349  2.3225e+07  8.9542e+01  1.7941e+09  
   350  2.3219e+07  8.9558e+01  1.7999e+09  
   351  2.3213e+07  8.9574e+01  1.8057e+09  
   352  2.3207e+07  8.9590e+01  1.8115e+09  
   353  2.3201e+07  8.9606e+01  1.8173e+09  
   354  2.3194e+07  8.9622e+01  1.8231e+09  
   355  2.3188e+07  8.9638e+01  1.8289e+09  
   356  2.3182e+07  8.9654e+01  1.8347e+09  
   357  2.3176e+07  8.9670e+01  1.8405e+09  
   358  2.3170e+07  8.9686e+01  1.8463e+09  
   359  2.3163e+07  8.9702e+01  1.8521e+09  
   360  2.3157e+07  8.9718e+01  1.8580e+09  
   361  2.3151e+07  8.9734e+01  1.8638e+09  
   362  2.3145e+07  8.9751e+01  1.8696e+09  
   363  2.3139e+07  8.9767e+01  1.8754e+09  
   364  2.3132e+07  8.9783e+01  1.8813e+09  
   365  2.3126e+07  8.9800e+01  1.8871e+09  
   366  2.3120e+07  8.9816e+01  1.8930e+09  
   367  2.3114e+07  8.9833e+01  1.8988e+09  
   368  2.3108e+07  8.9849e+01  1.9047e+09  
   369  2.3101e+07  8.9866e+01  1.9105e+09  
   370  2.3095e+07  8.9883e+01  1.9164e+09  
   371  2.3089e+07  8.9899e+01  1.9223e+09  
   372  2.3083e+07  8.9916e+01  1.9281e+09  
   373  2.3077e+07  8.9933e+01  1.9340e+09  
   374  2.3071e+07  8.9950e+01  1.9399e+09  
   375  2.3064e+07  8.9967e+01  1.9458e+09  
   376  2.3058e+07  8.9983e+01  1.9516e+09  
   377  2.3052e+07  9.0000e+01  1.9575e+09  
   378  2.3046e+07  9.0017e+01  1.9634e+09  
   379  2.3040e+07  9.0034e+01  1.9693e+09  
   380  2.3033e+07  9.0052e+01  1.9752e+09  
   381  2.3027e+07  9.0069e+01  1.9811e+09  
   382  2.3021e+07  9.0086e+01  1.9870e+09  
   383  2.3015e+07  9.0103e+01  1.9930e+09  
   384  2.3009e+07  9.0120e+01  1.9989e+09  
   385  2.3002e+07  9.0138e+01  2.0048e+09  
   386  2.2996e+07  9.0155e+01  2.0107e+09  
   387  2.2990e+07  9.0172e+01  2.0167e+09  
   388  2.2984e+07  9.0190e+01  2.0226e+09  
   389  2.2978e+07  9.0207e+01  2.0285e+09  
   390  2.2971e+07  9.0225e+01  2.0345e+09  
   391  2.2965e+07  9.0243e+01  2.0404e+09  
   392  2.2959e+07  9.0260e+01  2.0464e+09  
   393  2.2953e+07  9.0278e+01  2.0523e+09  
   394  2.2947e+07  9.0296e+01  2.0583e+09  
   395  2.2940e+07  9.0313e+01  2.0643e+09  
   396  2.2934e+07  9.0331e+01  2.0702e+09  
   397  2.2928e+07  9.0349e+01  2.0762e+09  
   398  2.2922e+07  9.0367e+01  2.0822e+09  
   399  2.2916e+07  9.0385e+01  2.0882e+09  
   400  2.2909e+07  9.0403e+01  2.0942e+09  
   401  2.2903e+07  9.0421e+01  2.1001e+09  
   402  2.2897e+07  9.0439e+01  2.1061e+09  
   403  2.2891e+07  9.0458e+01  2.1121e+09  
   404  2.2885e+07  9.0476e+01  2.1181e+09  
   405  2.2878e+07  9.0494e+01  2.1241e+09  
   406  2.2872e+07  9.0513e+01  2.1302e+09  
   407  2.2866e+07  9.0531e+01  2.1362e+09  
   408  2.2860e+07  9.0549e+01  2.1422e+09  
   409  2.2854e+07  9.0568e+01  2.1482e+09  
   410  2.2847e+07  9.0586e+01  2.1542e+09  
   411  2.2841e+07  9.0605e+01  2.1603e+09  
   412  2.2835e+07  9.0624e+01  2.1663e+09  
   413  2.2829e+07  9.0642e+01  2.1724e+09  
   414  2.2823e+07  9.0661e+01  2.1784e+09  
   415  2.2816e+07  9.0680e+01  2.1845e+09  
   416  2.2810e+07  9.0699e+01  2.1905e+09  
   417  2.2804e+07  9.0718e+01  2.1966e+09  
   418  2.2798e+07  9.0737e+01  2.2026e+09  
   419  2.2792e+07  9.0756e+01  2.2087e+09  
   420  2.2785e+07  9.0775e+01  2.2148e+09  
   421  2.2779e+07  9.0794e+01  2.2208e+09  
   422  2.2773e+07  9.0813e+01  2.2269e+09  
   423  2.2767e+07  9.0832e+01  2.2330e+09  
   424  2.2761e+07  9.0852e+01  2.2391e+09  
   425  2.2754e+07  9.0871e+01  2.2452e+09  
